# Smoothed IR Spectrum. Original file: week10_averaged_spectra.dat, FWHM: 30 cm^-1
# Column 1: Wavenumber (cm^-1)
# Column 2: Intensity (a.u.)
0.000000 1802040.793761
0.333564 1857763.721326
0.667128 1914470.851710
1.000692 1972152.768607
1.334256 2030783.783641
1.667820 2090358.376294
2.001384 2150869.075047
2.334948 2212294.014055
2.668512 2274629.264074
3.002076 2337855.737460
3.335640 2401958.003167
3.669204 2466914.187301
4.002768 2532720.081068
4.336332 2599363.305942
4.669896 2666820.094662
5.003460 2735080.368176
5.337024 2804133.561227
5.670588 2873925.874834
6.004152 2944432.901167
6.337716 3015663.959316
6.671280 3087585.633459
7.004844 3160186.012570
7.338408 3233437.884171
7.671972 3307302.730974
8.005536 3381767.387450
8.339100 3456810.318505
8.672664 3532420.535379
9.006228 3608570.856520
9.339792 3685211.385329
9.673356 3762319.205848
10.006920 3839889.217293
10.340484 3917903.582525
10.674048 3996332.115921
11.007612 4075147.781762
11.341176 4154314.633179
11.674740 4233799.085769
12.008304 4313575.839981
12.341868 4393625.465367
12.675432 4473914.700831
13.008996 4554424.183481
13.342560 4635135.629208
13.676124 4716016.031348
14.009688 4797029.301155
14.343252 4878172.325384
14.676816 4959410.270100
15.010380 5040714.213113
15.343944 5122045.851303
15.677508 5203382.974454
16.011072 5284717.067490
16.344636 5366011.373067
16.678200 5447229.199502
17.011764 5528379.451691
17.345328 5609411.740649
17.678892 5690293.429031
18.012456 5771012.254114
18.346020 5851538.411409
18.679584 5931840.029657
19.013148 6011916.086652
19.346712 6091734.597863
19.680276 6171266.111796
20.013840 6250489.786328
20.347404 6329368.386982
20.680968 6407895.665824
21.014532 6486050.492927
21.348096 6563801.053171
21.681660 6641118.606273
22.015224 6717985.221777
22.348788 6794384.074427
22.682352 6870296.629414
23.015916 6945698.316116
23.349480 7020578.764264
23.683044 7094920.966890
24.016608 7168684.122360
24.350172 7241848.902139
24.683736 7314424.817169
25.017300 7386365.332180
25.350864 7457664.316999
25.684428 7528293.822986
26.017992 7598244.036451
26.351556 7667511.595818
26.685120 7736057.738024
27.018684 7803884.859689
27.352248 7870975.804788
27.685812 7937311.321308
28.019376 8002875.500074
28.352940 8067643.680916
28.686504 8131619.908905
29.020068 8194796.188859
29.353632 8257157.025867
29.687196 8318673.629685
30.020760 8379349.888249
30.354324 8439167.703490
30.687888 8498127.768469
31.021452 8556207.522731
31.355016 8613410.438400
31.688580 8669718.993188
32.022144 8725131.872932
32.355708 8779651.949693
32.689272 8833277.858955
33.022836 8886015.730273
33.356400 8937827.332797
33.689964 8988705.211572
34.023528 9038663.143380
34.357092 9087695.109530
34.690656 9135820.113409
35.024220 9183052.634418
35.357784 9229351.609342
35.691348 9274716.920591
36.024912 9319154.640604
36.358476 9362679.890214
36.692040 9405293.395325
37.025604 9447008.504066
37.359168 9487819.003390
37.692732 9527715.187629
38.026296 9566749.158060
38.359860 9604894.592938
38.693424 9642167.607303
39.026988 9678584.861980
39.360552 9714142.318820
39.694116 9748860.354416
40.027680 9782721.212210
40.361244 9815760.916452
40.694808 9847984.046454
41.028372 9879406.472246
41.361936 9910045.924530
41.695500 9939908.689624
42.029064 9969014.249744
42.362628 9997377.591787
42.696192 10024993.916290
43.029756 10051888.853921
43.363320 10078074.065150
43.696884 10103580.561398
44.030448 10128421.701054
44.364012 10152593.167545
44.697576 10176130.853686
45.031140 10199055.240042
45.364704 10221376.558322
45.698268 10243097.943393
46.031832 10264268.360167
46.365396 10284883.973731
46.698960 10304947.272527
47.032524 10324492.852672
47.366088 10343545.483761
47.699652 10362121.564028
48.033216 10380231.613327
48.366780 10397875.351494
48.700344 10415088.209482
49.033908 10431887.102301
49.367472 10448272.725344
49.701036 10464277.082751
50.034600 10479924.002202
50.368164 10495216.110692
50.701728 10510159.175529
51.035292 10524770.635821
51.368856 10539067.208444
51.702420 10553071.526508
52.035984 10566798.337379
52.369548 10580245.384548
52.703112 10593428.639936
53.036676 10606367.766058
53.370240 10619079.735247
53.703804 10631566.166854
54.037368 10643846.111367
54.370932 10655921.559544
54.704496 10667792.874949
55.038060 10679466.931100
55.371624 10690962.242059
55.705188 10702291.445545
56.038752 10713454.884300
56.372316 10724466.443753
56.705880 10735323.581986
57.039444 10746033.987450
57.373008 10756606.873638
57.706572 10767037.127376
58.040136 10777333.528764
58.373700 10787495.872676
58.707264 10797511.278118
59.040828 10807397.889136
59.374392 10817138.682004
59.707956 10826757.055198
60.041520 10836248.868119
60.375084 10845595.088120
60.708648 10854826.229126
61.042212 10863924.030601
61.375776 10872854.403657
61.709340 10881631.714089
62.042904 10890251.302907
62.376468 10898722.524967
62.710032 10907026.803222
63.043596 10915168.010551
63.377160 10923138.604519
63.710724 10930938.317683
64.044288 10938551.348249
64.377852 10945970.650109
64.711416 10953191.770051
65.044980 10960190.599616
65.378544 10966972.647009
65.712108 10973538.146370
66.045672 10979880.148908
66.379236 10985976.920200
66.712800 10991815.706129
67.046364 10997388.513442
67.379928 11002683.579963
67.713492 11007703.056344
68.047056 11012437.881940
68.380620 11016852.635772
68.714184 11020943.902786
69.047748 11024718.160841
69.381312 11028177.291289
69.714876 11031294.344254
70.048440 11034043.430933
70.382004 11036422.375975
70.715568 11038418.790022
71.049132 11040031.961299
71.382696 11041224.071074
71.716260 11042018.995867
72.049824 11042411.682899
72.383388 11042387.174835
72.716952 11041923.023698
73.050516 11041020.168985
73.384080 11039668.455710
73.717644 11037854.216475
74.051208 11035574.265356
74.384772 11032815.268315
74.718336 11029567.380811
75.051900 11025846.749661
75.385464 11021630.893022
75.719028 11016912.420827
76.052592 11011688.656088
76.386156 11005958.957644
76.719720 10999721.083287
77.053284 10992961.197647
77.386848 10985673.770117
77.720412 10977865.521155
78.053976 10969534.078438
78.387540 10960669.695340
78.721104 10951260.104115
79.054668 10941324.404203
79.388232 10930854.493055
79.721796 10919850.276866
80.055360 10908321.046357
80.388924 10896272.119577
80.722488 10883699.534899
81.056052 10870596.958312
81.389616 10856989.709456
81.723180 10842860.553810
82.056744 10828222.460313
82.390308 10813091.691684
82.723872 10797456.576889
83.057436 10781325.336873
83.391000 10764704.460317
83.724564 10747586.942716
84.058128 10729984.198268
84.391692 10711969.443436
84.725256 10693526.754168
85.058820 10674652.844964
85.392384 10655323.397467
85.725948 10635576.384160
86.059512 10615417.644982
86.393076 10594864.510749
86.726640 10573938.598806
87.060204 10552643.827143
87.393768 10530979.281534
87.727332 10508972.261281
88.060896 10486626.803968
88.394460 10463948.501462
88.728024 10440971.981883
89.061588 10417721.592169
89.395152 10394195.205919
89.728716 10370418.944822
90.062280 10346394.162291
90.395844 10322122.776751
90.729408 10297639.425393
91.062972 10272954.631647
91.396536 10248096.957996
91.730100 10223072.149417
92.063664 10197886.856402
92.397228 10172557.399292
92.730792 10147112.885640
93.064356 10121567.320435
93.397920 10095923.031374
93.731484 10070215.423374
94.065048 10044443.766094
94.398612 10018611.873342
94.732176 9992733.167244
95.065740 9966842.296655
95.399304 9940969.486340
95.732868 9915104.598408
96.066432 9889263.415404
96.399996 9863465.922171
96.733560 9837716.322758
97.067124 9812022.849873
97.400688 9786401.065593
97.734252 9760880.780656
98.067816 9735455.794457
98.401380 9710145.860014
98.734944 9684966.749069
99.068508 9659914.690025
99.402072 9634991.760153
99.735636 9610216.970393
100.069200 9585601.856326
100.402764 9561145.876702
100.736328 9536871.380603
101.069892 9512773.096899
101.403456 9488846.819475
101.737020 9465105.581170
102.070584 9441580.804734
102.404148 9418269.224282
102.737712 9395173.428359
103.071276 9372276.849831
103.404840 9349584.971377
103.738404 9327118.817493
104.071968 9304869.745357
104.405532 9282841.918478
104.739096 9261037.374636
105.072660 9239452.900275
105.406224 9218088.349630
105.739788 9196950.627914
106.073352 9176034.323614
106.406916 9155325.827960
106.740480 9134824.075191
107.074044 9114536.501778
107.407608 9094453.821782
107.741172 9074566.597220
108.074736 9054888.758028
108.408300 9035435.402883
108.741864 9016156.939909
109.075428 8997074.351968
109.408992 8978170.122441
109.742556 8959433.450199
110.076120 8940881.714874
110.409684 8922496.490964
110.743248 8904259.288576
111.076812 8886167.992808
111.410376 8868214.045323
111.743940 8850411.885756
112.077504 8832739.366512
112.411068 8815176.329404
112.744632 8797715.205790
113.078196 8780366.243502
113.411760 8763094.233330
113.745324 8745920.488068
114.078888 8728836.594535
114.412452 8711829.597859
114.746016 8694875.841053
115.079580 8677997.658513
115.413144 8661163.274478
115.746708 8644352.580136
116.080272 8627574.891340
116.413836 8610813.063234
116.747400 8594046.451025
117.080964 8577275.764706
117.414528 8560506.941483
117.748092 8543745.211695
118.081656 8526968.057650
118.415220 8510152.879444
118.748784 8493307.095330
119.082348 8476434.640958
119.415912 8459503.363210
119.749476 8442536.568120
120.083040 8425532.995363
120.416604 8408468.966885
120.750168 8391340.772392
121.083732 8374161.941450
121.417296 8356900.001457
121.750860 8339553.788095
122.084424 8322128.950549
122.417988 8304625.594906
122.751552 8287051.785454
123.085116 8269391.474956
123.418680 8251647.357856
123.752244 8233830.579556
124.085808 8215930.490557
124.419372 8197943.251730
124.752936 8179872.240088
125.086500 8161722.189757
125.420064 8143493.040675
125.753628 8125162.935980
126.087192 8106744.226965
126.420756 8088262.902495
126.754320 8069721.158610
127.087884 8051087.526480
127.421448 8032390.540488
127.755012 8013621.540798
128.088576 7994800.459600
128.422140 7975932.555836
128.755704 7957003.338144
129.089268 7938026.146294
129.422832 7918997.425910
129.756396 7899922.931247
130.089960 7880820.462074
130.423524 7861685.688996
130.757088 7842538.484427
131.090652 7823373.811597
131.424216 7804194.909737
131.757780 7785004.740931
132.091344 7765833.764256
132.424908 7746674.461961
132.758472 7727537.522015
133.092036 7708426.580412
133.425600 7689365.650572
133.759164 7670349.304619
134.092728 7651376.523793
134.426292 7632457.593461
134.759856 7613599.538643
135.093420 7594808.391006
135.426984 7576076.811067
135.760548 7557448.014437
136.094112 7538945.032505
136.427676 7520547.823289
136.761240 7502259.076282
137.094804 7484073.971122
137.428368 7465997.179708
137.761932 7448067.999099
138.095496 7430294.871732
138.429060 7412684.882329
138.762624 7395231.850073
139.096188 7377947.965524
139.429752 7360833.231023
139.763316 7343902.606603
140.096880 7327179.744561
140.430444 7310631.727618
140.764008 7294308.438280
141.097572 7278202.668381
141.431136 7262305.809279
141.764700 7246646.252048
142.098264 7231222.636946
142.431828 7216049.065322
142.765392 7201131.612941
143.098956 7186480.026830
143.432520 7172081.837013
143.766084 7157945.775398
144.099648 7144082.776188
144.433212 7130503.568770
144.766776 7117207.351007
145.100340 7104213.831435
145.433904 7091509.753042
145.767468 7079107.870027
146.101032 7067009.495829
146.434596 7055224.261109
146.768160 7043764.410622
147.101724 7032623.262004
147.435288 7021805.405451
147.768852 7011297.174087
148.102416 7001124.369317
148.435980 6991279.362937
148.769544 6981774.483716
149.103108 6972627.424052
149.436672 6963807.245715
149.770236 6955318.855746
150.103800 6947171.753000
150.437364 6939373.041631
150.770928 6931943.213545
151.104492 6924851.308958
151.438056 6918084.331093
151.771620 6911674.553215
152.105184 6905613.509558
152.438748 6899870.984898
152.772312 6894479.433981
153.105876 6889443.024402
153.439440 6884748.564721
153.773004 6880409.152548
154.106568 6876403.660228
154.440132 6872719.803142
154.773696 6869383.304858
155.107260 6866378.149839
155.440824 6863697.131989
155.774388 6861331.988394
156.107952 6859294.140348
156.441516 6857567.834158
156.775080 6856155.690359
157.108644 6855056.953830
157.442208 6854266.806808
157.775772 6853785.684609
158.109336 6853600.534313
158.442900 6853709.551437
158.776464 6854104.163502
159.110028 6854785.620298
159.443592 6855751.790928
159.777156 6856988.167148
160.110720 6858490.748901
160.444284 6860272.322365
160.777848 6862325.374560
161.111412 6864652.561101
161.444976 6867233.845231
161.778540 6870077.021420
162.112104 6873154.034747
162.445668 6876468.692445
162.779232 6880031.642720
163.112796 6883813.780269
163.446360 6887834.494277
163.779924 6892108.906785
164.113488 6896622.702638
164.447052 6901363.460925
164.780616 6906308.523523
165.114180 6911484.998075
165.447744 6916874.048863
165.781308 6922466.718741
166.114872 6928275.890153
166.448436 6934307.226075
166.782000 6940539.825858
167.115564 6946971.209692
167.449128 6953607.729977
167.782692 6960445.514299
168.116256 6967489.012846
168.449820 6974728.305363
168.783384 6982181.092672
169.116948 6989842.670606
169.450512 6997697.354067
169.784076 7005749.180408
170.117640 7013978.649405
170.451204 7022408.106088
170.784768 7031047.884933
171.118332 7039899.362679
171.451896 7048944.203064
171.785460 7058162.132995
172.119024 7067569.210822
172.452588 7077194.318614
172.786152 7087023.626496
173.119716 7097046.135067
173.453280 7107254.380666
173.786844 7117668.007921
174.120408 7128259.641600
174.453972 7139036.512954
174.787536 7150010.752066
175.121100 7161190.545940
175.454664 7172542.372879
175.788228 7184077.569504
176.121792 7195813.403065
176.455356 7207747.186351
176.788920 7219853.029296
177.122484 7232132.610562
177.456048 7244584.681296
177.789612 7257214.914570
178.123176 7270022.761839
178.456740 7282992.662714
178.790304 7296122.057557
179.123868 7309401.630967
179.457432 7322833.879845
179.790996 7336425.710442
180.124560 7350161.108297
180.458124 7364030.667274
180.791688 7378034.945088
181.125252 7392170.326149
181.458816 7406419.675941
181.792380 7420779.379930
182.125944 7435237.457307
182.459508 7449793.537395
182.793072 7464429.939785
183.126636 7479135.999471
183.460200 7493901.475203
183.793764 7508719.749499
184.127328 7523583.435258
184.460892 7538493.320366
184.794456 7553428.401046
185.128020 7568377.490303
185.461584 7583328.824981
185.795148 7598275.657618
186.128712 7613207.254599
186.462276 7628100.504845
186.795840 7642936.281195
187.129404 7657682.507820
187.462968 7672360.130129
187.796532 7686963.637058
188.130096 7701465.101531
188.463660 7715844.885881
188.797224 7730090.616007
189.130788 7744187.728656
189.464352 7758130.361203
189.797916 7771904.627221
190.131480 7785495.211876
190.465044 7798886.937494
190.798608 7812044.954895
191.132172 7824966.094960
191.465736 7837637.130360
191.799300 7850056.657929
192.132864 7862196.135169
192.466428 7874065.446551
192.799992 7885642.482415
193.133556 7896887.670029
193.467120 7907811.536386
193.800684 7918387.224799
194.134248 7928607.467521
194.467812 7938463.382787
194.801376 7947935.748437
195.134940 7956999.591976
195.468504 7965661.817559
195.802068 7973927.202103
196.135632 7981773.303733
196.469196 7989185.729323
196.802760 7996160.262011
197.136324 8002682.914780
197.469888 8008738.578593
197.803452 8014319.135376
198.137016 8019434.674929
198.470580 8024076.937857
198.804144 8028233.356168
199.137708 8031895.383617
199.471272 8035056.983522
199.804836 8037721.014672
200.138400 8039879.348913
200.471964 8041530.295731
200.805528 8042666.927874
201.139092 8043294.566292
201.472656 8043415.698230
201.806220 8043035.806816
202.139784 8042162.974602
202.473348 8040774.567001
202.806912 8038895.054952
203.140476 8036513.513099
203.474040 8033628.486031
203.807604 8030245.079741
204.141168 8026373.525545
204.474732 8022031.128624
204.808296 8017218.213933
205.141860 8011932.256789
205.475424 8006199.090501
205.808988 8000006.014807
206.142552 7993344.067869
206.476116 7986245.989009
206.809680 7978723.525540
207.143244 7970787.940940
207.476808 7962434.924738
207.810372 7953690.315079
208.143936 7944556.530287
208.477500 7935046.550997
208.811064 7925171.916196
209.144628 7914944.423824
209.478192 7904371.501803
209.811756 7893467.571387
210.145320 7882242.075179
210.478884 7870721.633077
210.812448 7858908.494045
211.146012 7846825.464343
211.479576 7834462.773490
211.813140 7821839.230797
212.146704 7808984.553610
212.480268 7795900.062663
212.813832 7782603.281377
213.147396 7769116.314554
213.480960 7755431.669726
213.814524 7741569.923353
214.148088 7727551.360822
214.481652 7713394.596708
214.815216 7699105.951647
215.148780 7684682.513777
215.482344 7670134.497637
215.815908 7655503.965485
216.149472 7640777.875595
216.483036 7625978.151530
216.816600 7611114.655151
217.150164 7596215.397409
217.483728 7581267.007234
217.817292 7566288.099072
218.150856 7551300.501879
218.484420 7536295.392027
218.817984 7521312.199752
219.151548 7506353.239626
219.485112 7491419.684107
219.818676 7476515.895090
220.152240 7461650.120715
220.485804 7446838.813578
220.819368 7432085.012422
221.152932 7417407.867032
221.486496 7402807.521997
221.820060 7388284.921903
222.153624 7373846.859894
222.487188 7359507.597735
222.820752 7345281.645686
223.154316 7331173.776760
223.487880 7317179.237523
223.821444 7303315.630596
224.155008 7289601.508264
224.488572 7276038.135267
224.822136 7262608.745231
225.155700 7249330.501243
225.489264 7236206.198676
225.822828 7223229.225063
226.156392 7210408.613673
226.489956 7197763.027178
226.823520 7185298.568311
227.157084 7173003.968008
227.490648 7160878.173385
227.824212 7148932.505952
228.157776 7137178.615684
228.491340 7125603.404143
228.824904 7114208.478421
229.158468 7102996.016527
229.492032 7091975.344041
229.825596 7081150.307342
230.159160 7070512.262870
230.492724 7060059.513713
230.826288 7049787.682849
231.159852 7039712.399085
231.493416 7029839.078679
231.826980 7020146.922841
232.160544 7010646.656870
232.494108 7001325.484770
232.827672 6992191.781527
233.161236 6983238.990130
233.494800 6974462.069522
233.828364 6965861.391970
234.161928 6957438.404898
234.495492 6949184.679211
234.829056 6941089.002624
235.162620 6933155.759715
235.496184 6925387.179622
235.829748 6917765.546207
236.163312 6910277.557108
236.496876 6902946.751269
236.830440 6895758.694418
237.164004 6888703.250490
237.497568 6881774.473964
237.831132 6874970.309594
238.164696 6868298.301686
238.498260 6861722.035919
238.831824 6855242.861382
239.165388 6848864.836438
239.498952 6842575.954765
239.832516 6836364.426008
240.166080 6830242.982497
240.499644 6824198.680118
240.833208 6818216.404270
241.166772 6812280.913519
241.500336 6806390.010121
241.833900 6800538.561493
242.167464 6794732.056535
242.501028 6788951.126425
242.834592 6783183.222390
243.168156 6777412.902731
243.501720 6771644.264290
243.835284 6765876.894031
244.168848 6760093.110312
244.502412 6754292.532126
244.835976 6748487.083717
245.169540 6742629.611218
245.503104 6736725.468700
245.836668 6730789.541400
246.170232 6724797.034871
246.503796 6718745.250274
246.837360 6712627.143160
247.170924 6706432.407383
247.504488 6700156.296115
247.838052 6693798.915547
248.171616 6687358.035633
248.505180 6680812.862619
248.838744 6674152.628902
249.172308 6667388.582417
249.505872 6660512.106552
249.839436 6653499.389948
250.173000 6646378.482323
250.506564 6639141.872245
250.840128 6631760.694446
251.173692 6624239.568209
251.507256 6616576.236567
251.840820 6608782.579991
252.174384 6600848.889406
252.507948 6592778.914876
252.841512 6584564.229060
253.175076 6576183.151489
253.508640 6567647.212928
253.842204 6558969.499283
254.175768 6550141.035636
254.509332 6541149.878649
254.842896 6532014.784230
255.176460 6522714.502957
255.510024 6513264.722117
255.843588 6503666.376028
256.177152 6493900.482656
256.510716 6483997.263388
